01/01/2016
Time Northbound Southbound
Vehicle Count Average Speed (MPH) Vehicle Count Average Speed (MPH)
Current Historical Current Historical
01:00 111 21 54 69 45 54
02:00 57 11 53 85 27 53
03:00 26 11 54 51 17 55
04:00 20 16 55 22 11 58
05:00 23 35 58 21 13 58
06:00 36 108 56 27 42 55
07:00 80 392 57 23 153 54
08:00 85 740 55 46 342 55
09:00 125 513 54 77 257 54
10:00 205 431 56 135 250 55
11:00 233 410 55 153 333 54
12:00 269 437 55 267 401 56
13:00 324 419 55 299 435 56
14:00 301 411 55 252 495 56
15:00 324 475 55 297 533 56
16:00 326 503 55 363 655 55
17:00 312 505 55 356 652 56
18:00 325 517 54 350 708 55
19:00 221 508 55 282 581 54
20:00 175 329 55 246 437 54
21:00 125 213 56 186 342 55
22:00 97 146 55 171 289 54
23:00 90 115 57 97 235 55
24:00 68 73 56 69 137 54
01/02/2016
Time Northbound Southbound
Vehicle Count Average Speed (MPH) Vehicle Count Average Speed (MPH)
Current Historical Current Historical
01:00 23 41 58 38 71 56
02:00 15 18 54 36 43 54
03:00 5 12 58 18 25 56
04:00 11 13 57 8 12 54
05:00 20 23 54 9 18 52
06:00 45 53 56 18 28 54
07:00 107 156 58 29 46 55
08:00 125 226 57 67 104 53
09:00 217 346 56 106 170 54
10:00 341 440 56 172 240 55
11:00 413 466 55 249 318 55
12:00 477 470 54 343 401 55
13:00 462 447 54 370 448 56
14:00 434 434 55 441 451 55
15:00 386 400 55 489 473 55
16:00 385 406 54 496 499 55
17:00 403 406 55 494 495 55
18:00 358 403 54 487 470 54
19:00 321 333 55 415 421 53
20:00 191 258 55 330 360 54
21:00 146 175 55 259 297 55
22:00 119 133 57 252 240 55
23:00 86 103 56 158 185 54
24:00 63 62 56 89 116 56
01/03/2016
Time Northbound Southbound
Vehicle Count Average Speed (MPH) Vehicle Count Average Speed (MPH)
Current Historical Current Historical
01:00 32 39 55 77 66 57
02:00 10 22 57 25 39 58
03:00 12 12 58 16 23 58
04:00 10 12 54 9 13 56
05:00 15 13 60 6 9 53
06:00 32 30 58 12 12 56
07:00 66 79 59 19 25 54
08:00 112 123 56 42 53 56
09:00 207 234 56 94 100 55
10:00 242 281 55 183 212 56
11:00 327 380 56 237 263 55
12:00 374 393 56 258 262 56
13:00 414 472 56 361 404 55
14:00 381 418 57 388 420 55
15:00 384 407 55 384 455 55
16:00 367 367 56 418 453 56
17:00 351 388 56 465 458 55
18:00 339 373 55 368 437 55
19:00 246 269 56 379 377 54
20:00 142 184 57 243 298 54
21:00 86 116 56 197 225 54
22:00 80 80 58 126 144 55
23:00 63 52 57 78 92 53
24:00 16 25 56 34 53 58
01/04/2016
Time Northbound Southbound
Vehicle Count Average Speed (MPH) Vehicle Count Average Speed (MPH)
Current Historical Current Historical
01:00 16 15 59 31 28 58
02:00 7 10 55 11 13 52
03:00 13 10 56 3 7 54
04:00 13 14 57 9 6 56
05:00 43 36 58 10 11 56
06:00 132 128 57 42 46 55
07:00 450 456 56 191 167 54
08:00 884 814 54 342 341 54
09:00 542 551 56 209 247 55
10:00 425 446 56 233 281 55
11:00 390 402 55 296 313 55
12:00 349 387 56 356 362 55
13:00 361 390 55 390 403 56
14:00 337 379 55 424 431 56
15:00 449 436 54 454 482 55
16:00 456 449 54 633 592 54
17:00 475 453 55 651 647 55
18:00 463 459 54 815 775 53
19:00 346 368 55 567 581 52
20:00 162 210 56 348 377 54
21:00 120 129 56 252 272 55
22:00 76 73 56 155 179 55
23:00 40 53 58 94 104 54
24:00 24 28 54 59 60 56
01/05/2016
Time Northbound Southbound
Vehicle Count Average Speed (MPH) Vehicle Count Average Speed (MPH)
Current Historical Current Historical
01:00 15 14 54 30 31 55
02:00 7 8 50 15 15 56
03:00 13 11 56 17 11 60
04:00 12 15 56 7 9 53
05:00 38 38 56 15 10 54
06:00 142 131 56 43 39 55
07:00 462 465 56 178 169 54
08:00 843 841 54 398 362 54
09:00 586 543 55 223 245 54
10:00 400 436 55 252 255 55
11:00 367 397 55 267 307 55
12:00 422 410 54 361 345 55
13:00 352 378 55 372 396 56
14:00 366 382 55 431 455 56
15:00 499 442 54 512 498 55
16:00 447 457 54 628 606 55
17:00 463 466 55 612 648 55
18:00 465 518 54 854 793 53
19:00 329 398 54 579 598 52
20:00 191 218 56 417 421 53
21:00 126 147 56 256 329 55
22:00 78 90 54 179 225 55
23:00 49 57 57 118 123 56
24:00 27 27 55 61 65 57
01/06/2016
Time Northbound Southbound
Vehicle Count Average Speed (MPH) Vehicle Count Average Speed (MPH)
Current Historical Current Historical
01:00 17 17 57 29 30 56
02:00 10 8 52 17 17 58
03:00 7 9 60 8 14 53
04:00 13 18 54 7 11 55
05:00 40 39 57 14 12 55
06:00 135 136 57 41 46 54
07:00 434 452 56 162 169 54
08:00 895 827 54 399 336 53
09:00 585 563 55 232 244 54
10:00 404 431 56 271 256 54
11:00 389 423 56 299 325 55
12:00 348 425 56 306 376 55
13:00 384 421 55 401 426 55
14:00 366 414 55 433 472 55
15:00 433 418 53 465 509 55
16:00 470 442 54 599 616 54
17:00 465 442 53 674 634 54
18:00 494 490 54 828 748 53
19:00 376 371 55 571 582 52
20:00 191 205 55 387 412 54
21:00 153 155 55 301 352 55
22:00 61 86 55 196 209 56
23:00 60 64 57 84 124 56
24:00 17 31 59 65 72 57
01/07/2016
Time Northbound Southbound
Vehicle Count Average Speed (MPH) Vehicle Count Average Speed (MPH)
Current Historical Current Historical
01:00 10 16 54 32 38 56
02:00 8 10 55 18 20 56
03:00 8 10 56 10 14 56
04:00 14 16 50 9 12 55
05:00 43 34 58 8 11 55
06:00 132 114 56 43 39 54
07:00 459 413 56 192 155 53
08:00 894 749 54 380 326 54
09:00 573 525 55 224 236 54
10:00 394 402 55 253 256 55
11:00 356 404 55 305 317 55
12:00 375 404 55 336 370 55
13:00 370 372 56 363 408 55
14:00 386 375 55 444 459 55
15:00 426 423 53 464 487 55
16:00 474 453 55 595 597 55
17:00 479 455 55 636 616 55
18:00 496 478 54 796 700 53
19:00 401 394 54 579 544 53
20:00 205 246 56 394 387 54
21:00 162 177 56 296 329 54
22:00 78 117 56 204 221 55
23:00 49 70 55 111 133 56
24:00 24 36 57 48 80 57
01/08/2016
Time Northbound Southbound
Vehicle Count Average Speed (MPH) Vehicle Count Average Speed (MPH)
Current Historical Current Historical
01:00 19 29 55 28 47 54
02:00 5 15 48 26 32 57
03:00 9 12 55 18 21 55
04:00 12 16 55 13 12 56
05:00 37 34 57 9 13 52
06:00 121 102 58 46 41 55
07:00 453 366 56 186 145 53
08:00 840 695 54 370 322 53
09:00 588 483 55 262 243 54
10:00 390 409 55 242 240 55
11:00 395 394 54 337 318 54
12:00 409 420 55 375 389 54
13:00 380 404 56 383 421 55
14:00 384 396 54 474 475 54
15:00 474 465 51 594 512 53
16:00 517 492 54 690 631 53
17:00 544 491 54 667 629 53
18:00 599 503 54 763 676 54
19:00 452 480 55 580 552 52
20:00 288 314 55 372 414 54
21:00 170 204 56 309 326 55
22:00 132 142 56 287 278 55
23:00 84 114 56 225 226 55
24:00 53 72 55 104 132 55
01/09/2016
Time Northbound Southbound
Vehicle Count Average Speed (MPH) Vehicle Count Average Speed (MPH)
Current Historical Current Historical
01:00 32 39 55 90 69 55
02:00 18 18 50 35 42 54
03:00 8 10 57 11 25 54
04:00 8 12 58 14 12 53
05:00 21 22 55 11 17 54
06:00 46 52 57 16 28 54
07:00 149 154 58 33 45 56
08:00 194 222 56 75 103 55
09:00 285 341 56 135 168 56
10:00 381 443 55 230 240 54
11:00 361 471 55 291 317 55
12:00 454 475 54 390 400 56
13:00 441 450 55 424 445 55
14:00 518 433 54 495 454 55
15:00 450 397 55 489 476 55
16:00 446 405 55 498 504 55
17:00 403 414 55 508 499 55
18:00 387 413 54 491 478 54
19:00 343 333 55 415 422 52
20:00 198 250 56 337 359 54
21:00 147 175 56 287 296 54
22:00 102 134 54 235 246 55
23:00 95 103 53 152 187 54
24:00 50 62 54 96 114 54
01/10/2016
Time Northbound Southbound
Vehicle Count Average Speed (MPH) Vehicle Count Average Speed (MPH)
Current Historical Current Historical
01:00 24 38 55 59 68 55
02:00 20 21 56 27 38 50
03:00 12 12 55 20 23 54
04:00 11 12 52 10 13 54
05:00 13 12 59 10 9 54
06:00 35 29 58 13 12 55
07:00 72 78 59 15 24 54
08:00 101 121 57 41 52 55
09:00 231 231 57 81 98 54
10:00 265 278 57 194 209 53
11:00 350 375 57 253 260 54
12:00 401 391 57 250 260 54
13:00 461 467 56 420 401 55
14:00 350 413 57 420 413 55
15:00 413 402 56 404 448 55
16:00 325 360 56 394 451 55
17:00 365 379 56 463 456 54
18:00 358 368 56 437 428 54
19:00 242 263 56 366 373 53
20:00 183 176 57 271 287 53
21:00 92 112 57 189 219 54
22:00 76 79 57 116 142 54
23:00 48 53 56 90 90 56
24:00 15 23 56 33 52 56
